INDEX VERSION 1.131+/Users/ramanujdas/Documents/Training-Programs/cg-aws-june-2022/.metadata/.plugins/org.eclipse.jdt.core
1519783889.index
707711042.index
1810424110.index
1052331385.index
1781260297.index
4072458141.index
4245189851.index
774378375.index
7917873.index
1917721063.index
3295644267.index
1604581598.index
3322631277.index
3412443013.index
63625262.index
2602656144.index
3608589320.index
1626170033.index
2537459140.index
842005679.index
3537629251.index
1996988759.index
215722452.index
1465470937.index
4157071672.index
3666416767.index
1072498497.index
3796245281.index
666493535.index
3163386768.index
2152336284.index
174360101.index
3252791492.index
2215804412.index
293897644.index
1226153973.index
1150894069.index
60906725.index
1967090106.index
345792935.index
982223326.index
3994510296.index
4107362830.index
1902168954.index
1243327574.index
230970649.index
1577106740.index
1808803265.index
1800665247.index
3222457771.index
850035504.index
136669627.index
3204747476.index
1418563494.index
738422340.index
1425707861.index
2569633400.index
3280875784.index
968570398.index
3719473973.index
747402657.index
1731821824.index
393180486.index
3452167845.index
3514951207.index
1825757320.index
1849392730.index
3352642554.index
520008481.index
1243136314.index
951920516.index
3867010718.index
3841077447.index
3443337902.index
1384292732.index
1146649629.index
241803786.index
3586660504.index
63968551.index
4109306606.index
4006775359.index
174932559.index
3519238474.index
3782373448.index
1925714899.index
1918228868.index
278093193.index
956215192.index
2432678828.index
1546763271.index
258566322.index
3619054237.index
252236326.index
1760719022.index
118923684.index
1880424749.index
3774562955.index
3003880770.index
2005180441.index
1457660375.index
3022649099.index
3470898122.index
3864437810.index
2812315230.index
